"Time (s)","X (rad/s)","Y (rad/s)","Z (rad/s)"
4.386874993E-3,2.684247196E-1,-6.025506854E-1,8.073973656E-2
1.436187499E-2,3.270320296E-1,-5.269727707E-1,8.148845285E-2
2.433687498E-2,3.715747297E-1,-4.441785812E-1,5.503740534E-2
3.431187500E-2,3.818362355E-1,-3.274638057E-1,2.149418555E-2
4.428687500E-2,3.571873307E-1,-2.322531044E-1,2.925827168E-3
5.426187499E-2,3.246439695E-1,-2.293537706E-1,4.686030559E-3
6.423687498E-2,2.844243944E-1,-2.947708666E-1,6.522546522E-3
7.421187501E-2,2.489237934E-1,-3.688045144E-1,-3.928702790E-3
8.418687500E-2,2.053901702E-1,-4.191741943E-1,-2.844709530E-2
9.416287500E-2,1.840342134E-1,-4.420309663E-1,-4.936742038E-2
1.041378750E-1,1.944991052E-1,-4.160441160E-1,-4.213081300E-2
1.141128750E-1,1.783069372E-1,-3.842468262E-1,-3.419541568E-2
1.240878750E-1,1.343480051E-1,-4.424808323E-1,-4.177104309E-2
1.340628750E-1,1.070287749E-1,-5.650162101E-1,-3.069600649E-2
1.440378750E-1,9.403494745E-2,-7.251701951E-1,1.089005265E-2
1.540128750E-1,9.295451641E-2,-8.971113563E-1,7.284080982E-2
1.639878750E-1,1.096876860E-1,-1.046456337E0,1.220775992E-1
1.739628750E-1,1.437286735E-1,-1.197506785E0,1.345453262E-1
1.839378750E-1,1.742588878E-1,-1.330062389E0,1.290669441E-1
1.939128750E-1,2.130221874E-1,-1.358029127E0,1.206088364E-1
2.038878750E-1,2.605004907E-1,-1.277751923E0,9.282220900E-2
2.138628750E-1,2.779893875E-1,-1.157688737E0,3.138849884E-2
2.238388750E-1,2.438732386E-1,-1.024645209E0,-3.680120781E-2
2.338138750E-1,1.815740168E-1,-8.988938332E-1,-1.007453203E-1
2.437888750E-1,1.141153425E-1,-8.287107348E-1,-1.531281024E-1
2.537638750E-1,4.328443110E-2,-8.373409510E-1,-1.854967475E-1
2.637388750E-1,-2.237074636E-2,-9.110593796E-1,-1.800156981E-1
2.737138750E-1,-8.450810611E-2,-1.039919734E0,-1.444775909E-1
2.836888750E-1,-1.272321343E-1,-1.217371225E0,-8.742683381E-2
2.936638750E-1,-1.527636647E-1,-1.390481591E0,-3.349314258E-2
3.036388750E-1,-1.649561375E-1,-1.514471412E0,1.245597471E-2
3.136138750E-1,-1.496575177E-1,-1.566481709E0,5.479909852E-2
3.235888750E-1,-1.099127755E-1,-1.596317887E0,1.003551334E-1
3.335638750E-1,-5.784887448E-2,-1.635354877E0,1.428387165E-1
3.435388750E-1,-2.785635553E-2,-1.686999202E0,1.715001911E-1
3.535138750E-1,-2.929272875E-2,-1.745608568E0,1.869816780E-1
3.634898750E-1,-4.756360874E-2,-1.764007568E0,1.858895123E-1
3.734648750E-1,-7.453156263E-2,-1.746851683E0,1.663384885E-1
3.834393750E-1,-1.167631745E-1,-1.707302451E0,1.292699426E-1
3.934143750E-1,-1.474736780E-1,-1.659845233E0,9.692773968E-2
4.033893750E-1,-1.650068611E-1,-1.641341567E0,6.864150614E-2
4.133643750E-1,-1.854032874E-1,-1.656502485E0,2.837862819E-2
4.233393750E-1,-2.112623155E-1,-1.674211144E0,-1.381037012E-2
4.333143750E-1,-2.356233001E-1,-1.657265425E0,-5.829337984E-2
4.432893750E-1,-2.530382574E-1,-1.594728351E0,-1.098290160E-1
4.532643750E-1,-2.607827485E-1,-1.493920803E0,-1.628579348E-1
4.632393750E-1,-2.282540947E-1,-1.307176232E0,-2.085652351E-1
4.732143750E-1,-1.478131562E-1,-1.139525771E0,-2.352044880E-1
4.831893750E-1,-5.324244127E-2,-1.030474901E0,-2.314584851E-1
4.931643750E-1,1.936266012E-2,-9.827150106E-1,-2.056961805E-1
5.031393750E-1,7.087245584E-2,-9.575142860E-1,-1.707104892E-1
5.131153750E-1,8.636843413E-2,-9.368898869E-1,-1.394575238E-1
5.230903750E-1,8.143892139E-2,-9.115923047E-1,-1.202284321E-1
5.330653750E-1,7.305842638E-2,-9.083743095E-1,-1.083306223E-1
5.430403750E-1,6.087419391E-2,-9.184312224E-1,-9.993766993E-2
5.530153750E-1,4.515958950E-2,-9.668580294E-1,-1.127138436E-1
5.629903750E-1,-1.260730345E-2,-1.013324976E0,-1.431577802E-1
5.729653750E-1,-1.117612496E-1,-1.045907259E0,-1.814661473E-1
5.829403750E-1,-2.058312744E-1,-1.089082479E0,-2.229155898E-1
5.929153750E-1,-2.586324513E-1,-1.178064227E0,-2.386881113E-1
6.028903750E-1,-2.551716566E-1,-1.259069085E0,-2.449766397E-1
6.128653750E-1,-2.073048502E-1,-1.325018048E0,-2.492143512E-1
6.228403750E-1,-1.706272513E-1,-1.408384323E0,-2.565079629E-1
6.328153750E-1,-2.035022229E-1,-1.491235733E0,-2.649458647E-1
6.427903750E-1,-2.928022742E-1,-1.545085073E0,-2.724666297E-1
6.527663750E-1,-3.839147389E-1,-1.553011656E0,-2.723214626E-1
6.627413750E-1,-4.240443110E-1,-1.581078410E0,-2.678755522E-1
6.727163750E-1,-4.221906364E-1,-1.605384111E0,-2.681302428E-1
6.826913750E-1,-4.175364971E-1,-1.620017171E0,-2.707915306E-1
6.926663750E-1,-4.235499799E-1,-1.641081810E0,-2.751147747E-1
7.026413750E-1,-4.343491197E-1,-1.678203702E0,-2.833074331E-1
7.126163750E-1,-4.658942223E-1,-1.664583445E0,-3.199202716E-1
7.225913750E-1,-5.526219010E-1,-1.568356752E0,-3.734317124E-1
7.325663750E-1,-6.857740879E-1,-1.491929531E0,-3.781339228E-1
7.425413750E-1,-8.196967244E-1,-1.456202745E0,-3.098707199E-1
7.525163750E-1,-8.718594313E-1,-1.431745052E0,-2.091242671E-1
7.624913750E-1,-8.151320219E-1,-1.371701121E0,-1.397390664E-1
7.724663750E-1,-7.223296165E-1,-1.335551500E0,-1.360585690E-1
7.824413750E-1,-6.498903036E-1,-1.376621127E0,-1.330752969E-1
7.924163750E-1,-6.104324460E-1,-1.440435767E0,-1.413377225E-1
8.023923750E-1,-6.297872663E-1,-1.491710186E0,-1.925974488E-1
8.123673750E-1,-7.060814500E-1,-1.550380468E0,-2.502492070E-1
8.223423750E-1,-7.975940704E-1,-1.538903594E0,-3.312023878E-1
8.323173750E-1,-9.043356776E-1,-1.465879679E0,-4.155510366E-1
8.422923750E-1,-1.032495260E0,-1.379640579E0,-5.139633417E-1
8.522673750E-1,-1.172244668E0,-1.311747193E0,-5.961415768E-1
8.622423750E-1,-1.279510379E0,-1.311401248E0,-6.170215607E-1
8.722173750E-1,-1.327758670E0,-1.451267242E0,-5.995726585E-1
8.821923750E-1,-1.358740330E0,-1.686971903E0,-5.848115683E-1
8.921673750E-1,-1.451885462E0,-1.864287019E0,-5.892436504E-1
9.021423750E-1,-1.654665947E0,-1.862934351E0,-5.768463612E-1
9.121173750E-1,-1.863792896E0,-1.702093959E0,-5.504546762E-1
9.220923750E-1,-1.968688250E0,-1.460725904E0,-5.378627181E-1
9.320673750E-1,-2.007770300E0,-1.174263954E0,-5.689065456E-1
9.420423750E-1,-2.064228296E0,-9.552503824E-1,-6.537202597E-1
9.520183750E-1,-2.155752897E0,-8.196739554E-1,-7.704913020E-1
9.619933750E-1,-2.270537853E0,-6.458874941E-1,-8.831036091E-1
9.719683750E-1,-2.450656414E0,-3.205774426E-1,-9.872044325E-1
9.819433750E-1,-2.757647753E0,-4.780025780E-2,-1.057377696E0
9.919183750E-1,-3.023235321E0,7.058390230E-2,-1.160157919E0
1.001893375E0,-3.089823008E0,4.094051942E-2,-1.321094871E0
1.011868375E0,-3.111634493E0,2.267952710E-1,-1.503913641E0
1.021843375E0,-3.033390760E0,5.299602151E-1,-1.676486731E0
1.031818375E0,-2.837184191E0,6.318737864E-1,-1.734755874E0
1.041793375E0,-2.620394230E0,3.605091572E-1,-1.685666442E0
1.051768375E0,-2.490174770E0,-1.003035530E-1,-1.584028721E0
1.061743375E0,-2.432869434E0,-2.744860053E-1,-1.490122199E0
1.071718375E0,-2.422405243E0,-1.785313524E-2,-1.433142185E0
1.081693375E0,-2.439698458E0,5.263600945E-1,-1.491530895E0
1.091668375E0,-2.461210489E0,1.120844245E0,-1.546028852E0
1.101643375E0,-2.434839725E0,1.512846351E0,-1.590813398E0
1.111619375E0,-2.349797964E0,1.706824899E0,-1.617698550E0
1.121594375E0,-2.269954205E0,1.694383979E0,-1.596742392E0
1.131569375E0,-2.143469810E0,1.575908899E0,-1.517107248E0
1.141544375E0,-2.087930441E0,1.385936022E0,-1.443678260E0
1.151519375E0,-2.052762508E0,1.348135710E0,-1.350972652E0
1.161494375E0,-2.047108650E0,1.469944358E0,-1.269778728E0
1.171469375E0,-2.041787863E0,1.558798909E0,-1.241956234E0
1.181444375E0,-1.986876369E0,1.509274960E0,-1.196321130E0
1.191419375E0,-1.922992468E0,1.316371083E0,-1.147649407E0
1.201394375E0,-1.878334284E0,1.174305201E0,-1.100365520E0
1.211369375E0,-1.814751267E0,1.171469927E0,-1.024924755E0
1.221344375E0,-1.745682955E0,1.229031682E0,-9.386638403E-1
1.231319375E0,-1.666089892E0,1.251875162E0,-8.482906818E-1
1.241294375E0,-1.574390888E0,1.217484713E0,-7.922838926E-1
1.251269375E0,-1.506258607E0,1.101707339E0,-7.751526833E-1
1.261244375E0,-1.461966991E0,1.023971558E0,-7.389701605E-1
1.271220375E0,-1.423213363E0,1.002923012E0,-7.012630105E-1
1.281195375E0,-1.386778355E0,1.030187368E0,-6.497468352E-1
1.291170375E0,-1.343844414E0,1.000542760E0,-5.928571224E-1
1.301145375E0,-1.300937176E0,9.270610809E-1,-5.329245329E-1
1.311120375E0,-1.278163433E0,8.275582194E-1,-5.007328987E-1
1.321095375E0,-1.244049430E0,6.927703023E-1,-4.857465029E-1
1.331070375E0,-1.210752487E0,6.617285609E-1,-4.573077261E-1
1.341045375E0,-1.206776619E0,6.662181020E-1,-4.487672448E-1
1.351020375E0,-1.198253870E0,6.552284360E-1,-4.285374582E-1
1.360995375E0,-1.180783510E0,6.145089865E-1,-3.759014010E-1
1.370970375E0,-1.174338222E0,5.992246270E-1,-3.062483072E-1
1.380945375E0,-1.165574074E0,6.245294809E-1,-2.474134713E-1
1.390921292E0,-1.157479048E0,6.579298973E-1,-1.934993118E-1
1.400896292E0,-1.146714568E0,6.900089979E-1,-1.418949813E-1
1.410871292E0,-1.156616211E0,7.019578218E-1,-6.216314062E-2
1.420846292E0,-1.157016993E0,7.071940899E-1,-1.804724103E-3
1.430821292E0,-1.163919568E0,6.167971492E-1,3.645097092E-2
1.440797292E0,-1.188011408E0,5.321499109E-1,6.257444620E-2
1.450772292E0,-1.195281148E0,5.015351772E-1,1.105723828E-1
1.460747292E0,-1.212167978E0,4.771976769E-1,1.561419964E-1
1.470722292E0,-1.232381344E0,4.189355075E-1,2.187140882E-1
1.480697292E0,-1.234816313E0,3.931345642E-1,2.570686638E-1
1.490672292E0,-1.241963148E0,3.736648560E-1,3.019813597E-1
1.500647292E0,-1.252548933E0,3.792835772E-1,3.608691990E-1
1.510622292E0,-1.239248157E0,4.027633071E-1,4.220839143E-1
1.520597292E0,-1.243424773E0,4.709444940E-1,4.819965065E-1
1.530572292E0,-1.244132519E0,5.539733768E-1,5.560284853E-1
1.540547292E0,-1.242533565E0,6.125863791E-1,6.328774691E-1
1.550522292E0,-1.225220203E0,6.190589070E-1,7.091530561E-1
1.560497292E0,-1.212404490E0,6.217183471E-1,7.789726257E-1
1.570472292E0,-1.184175849E0,6.249977350E-1,8.471298218E-1
1.580447292E0,-1.159581900E0,6.049990058E-1,9.029288888E-1
1.590422292E0,-1.175490499E0,5.896524191E-1,9.566078186E-1
1.600397292E0,-1.163143516E0,5.884691477E-1,1.010014057E0
1.610373292E0,-1.139458418E0,5.290468335E-1,1.043960214E0
1.620348292E0,-1.159413576E0,4.822593331E-1,1.099302888E0
1.630323292E0,-1.180635691E0,5.115066767E-1,1.191048622E0
1.640298292E0,-1.213872194E0,5.335195661E-1,1.283772707E0
1.650273292E0,-1.249692321E0,4.983178675E-1,1.377926826E0
1.660248292E0,-1.254333138E0,4.708676040E-1,1.470013618E0
1.670223292E0,-1.254943132E0,4.722131193E-1,1.554332376E0
1.680198292E0,-1.245786428E0,5.255330801E-1,1.612503767E0
1.690173292E0,-1.186982870E0,5.341239572E-1,1.645499945E0
1.700148292E0,-1.109979749E0,5.135451555E-1,1.685646892E0
1.710123292E0,-9.987481236E-1,5.181747675E-1,1.731779695E0
1.720098292E0,-9.347417355E-1,5.141105056E-1,1.787375569E0
1.730073292E0,-9.387491941E-1,5.254393816E-1,1.826815248E0
1.740048292E0,-9.432395697E-1,5.363029242E-1,1.859334350E0
1.750023292E0,-9.100731015E-1,5.181944966E-1,1.902860165E0
1.759998292E0,-8.897293210E-1,5.482971072E-1,1.957445502E0
1.769973292E0,-8.862925768E-1,5.966482759E-1,2.015909672E0
1.779948292E0,-8.432148695E-1,5.697200298E-1,2.081324816E0
1.789923292E0,-8.184137344E-1,4.918364584E-1,2.152880192E0
1.799899292E0,-7.732537389E-1,4.574531913E-1,2.228498459E0
1.809874292E0,-7.413926721E-1,4.385817051E-1,2.298698902E0
1.819849292E0,-7.133299112E-1,4.119405150E-1,2.344865084E0
1.829824292E0,-6.905771494E-1,3.541364670E-1,2.370943308E0
1.839799292E0,-7.007381916E-1,3.141916990E-1,2.374779463E0
1.849774292E0,-7.004057169E-1,3.063216805E-1,2.367593050E0
1.859749292E0,-6.685015559E-1,2.688936293E-1,2.369037628E0
1.869724292E0,-6.521838307E-1,2.049590349E-1,2.391761065E0
1.879699292E0,-6.822466850E-1,1.872109324E-1,2.405022621E0
1.889674292E0,-6.943332553E-1,2.246236056E-1,2.401628017E0
1.899649292E0,-6.824723482E-1,2.543375492E-1,2.412732363E0
1.909624292E0,-6.475273967E-1,2.212138176E-1,2.429942131E0
1.919599292E0,-6.272588968E-1,1.778676808E-1,2.441689968E0
1.929574292E0,-6.433207989E-1,1.239546239E-1,2.431617260E0
1.939549292E0,-6.669704318E-1,6.892439723E-2,2.385465622E0
1.949524292E0,-6.626662016E-1,4.507752135E-2,2.373534918E0
1.959499292E0,-7.030844688E-1,-1.974595152E-2,2.338839293E0
1.969474292E0,-7.121867537E-1,-2.087799273E-2,2.348623037E0
1.979449292E0,-6.810997128E-1,-1.977198198E-2,2.392175674E0
1.989424292E0,-6.054747701E-1,-4.239704832E-2,2.444909334E0
1.999400292E0,-5.320357084E-1,-5.945992097E-2,2.498486280E0
2.009375292E0,-4.797434211E-1,5.034422968E-3,2.534652710E0
2.019350292E0,-4.453955591E-1,7.985247672E-2,2.530143738E0
2.029325292E0,-4.061986208E-1,1.494292915E-1,2.501170158E0
2.039300292E0,-3.525665700E-1,1.911913902E-1,2.463828802E0
2.049275292E0,-3.135601282E-1,2.169311941E-1,2.423311472E0
2.059250292E0,-3.104551435E-1,2.551797926E-1,2.368394613E0
2.069225292E0,-3.090901673E-1,3.166368008E-1,2.298328400E0
2.079200292E0,-3.068000972E-1,3.832054436E-1,2.221148014E0
2.089175292E0,-3.132963181E-1,4.040585458E-1,2.150032520E0
2.099150292E0,-3.163440526E-1,3.419506848E-1,2.075073481E0
2.109125292E0,-2.857125998E-1,2.223675847E-1,2.012670994E0
2.119100292E0,-2.514060140E-1,6.164848059E-2,1.967435241E0
2.129075292E0,-2.100966871E-1,-7.865818590E-2,1.916441202E0
2.139050292E0,-1.922239363E-1,-1.584861726E-1,1.829644799E0
2.149025292E0,-1.902681589E-1,-1.689794362E-1,1.707542419E0
2.159000292E0,-1.672043949E-1,-1.542675942E-1,1.566372037E0
2.168975292E0,-1.320583075E-1,-2.166808844E-1,1.430112600E0
2.178950292E0,-7.959564775E-2,-3.624972105E-1,1.316215038E0
2.188925292E0,-3.052793629E-2,-5.012063980E-1,1.204460382E0
2.198901292E0,6.955258548E-3,-5.736968517E-1,1.096135259E0
2.208876292E0,4.003754584E-4,-6.062853932E-1,9.980764389E-1
2.218851292E0,-2.170545980E-2,-5.646316409E-1,8.972369432E-1
2.228826292E0,-2.790676057E-2,-5.372219682E-1,7.953186035E-1
2.238801292E0,-5.830752663E-3,-6.061658859E-1,6.981896758E-1
2.248776292E0,4.116532952E-2,-7.535548806E-1,6.067227125E-1
2.258751292E0,9.072889388E-2,-9.167182446E-1,5.240734220E-1
2.268726292E0,1.161200181E-1,-1.052517533E0,4.375420213E-1
2.278701292E0,9.585548937E-2,-1.118577242E0,3.675115108E-1
2.288676292E0,7.271391153E-2,-1.088526607E0,3.129722774E-1
2.298651292E0,4.619361833E-2,-1.059150815E0,2.700040340E-1
2.308626292E0,2.295433078E-4,-1.057957411E0,2.494483292E-1
2.318601292E0,-3.167299554E-2,-1.069984198E0,2.500475347E-1
2.328576292E0,-6.324350834E-2,-1.101708412E0,2.434563488E-1
2.338551292E0,-1.066746041E-1,-1.140435338E0,2.296462506E-1
2.348526292E0,-1.250373423E-1,-1.194407344E0,2.132191509E-1
2.358501292E0,-1.255310923E-1,-1.290411949E0,1.998527497E-1
2.368476292E0,-1.250011474E-1,-1.429489851E0,1.972941607E-1
2.378451292E0,-1.154965982E-1,-1.556846738E0,2.231864780E-1
2.388426125E0,-1.275410652E-1,-1.646986485E0,2.534212172E-1
2.398401125E0,-1.373417675E-1,-1.668101907E0,2.689631581E-1
2.408377125E0,-1.374821216E-1,-1.573896289E0,2.646371126E-1
2.418352125E0,-1.421346664E-1,-1.477745771E0,2.589858770E-1
2.428327125E0,-1.037360877E-1,-1.412786961E0,3.010642231E-1
2.438302125E0,-4.243544862E-2,-1.434830427E0,3.580108583E-1
2.448277125E0,6.381116807E-2,-1.532479167E0,4.284223020E-1
2.458252125E0,1.921550184E-1,-1.664864898E0,5.031748414E-1
2.468227125E0,3.139466047E-1,-1.824005723E0,5.334745049E-1
2.478202125E0,4.173009694E-1,-1.817481041E0,4.938253462E-1
2.488177125E0,6.094108224E-1,-1.657218337E0,4.140244424E-1
2.498152125E0,6.211692095E-1,-1.757691979E0,2.744961083E-1
2.508127125E0,4.018959701E-1,-1.924420118E0,2.210525423E-1
2.518102125E0,3.013224900E-1,-1.910564423E0,3.266820312E-1
2.528077125E0,3.069663942E-1,-1.816538930E0,4.226625860E-1
2.538052125E0,4.008244276E-1,-1.717875719E0,5.066587329E-1
2.548027125E0,5.587632656E-1,-1.749421597E0,5.829266906E-1
2.558002125E0,7.206270099E-1,-1.841390848E0,6.584494114E-1
2.567977125E0,8.251807690E-1,-1.844319940E0,6.859619021E-1
2.577952125E0,9.244359732E-1,-1.748261929E0,6.794635057E-1
2.587927125E0,9.899471402E-1,-1.580095172E0,5.881336331E-1
2.597902125E0,9.570775628E-1,-1.442791462E0,4.950470626E-1
2.607877125E0,8.099681735E-1,-1.398272276E0,3.788124621E-1
2.617852125E0,5.695507526E-1,-1.450126529E0,1.944990605E-1
2.627828125E0,4.520018697E-1,-1.373555064E0,7.799040526E-2
2.637803125E0,4.891111553E-1,-1.223538995E0,9.547725320E-2
2.647778125E0,6.291909814E-1,-1.149199605E0,1.573035121E-1
2.657753125E0,8.001872301E-1,-1.112817645E0,1.889197528E-1
2.667728125E0,1.006655574E0,-9.477314353E-1,2.497026026E-1
2.677703125E0,1.049232364E0,-9.622712135E-1,2.716822028E-1
2.687678125E0,9.985086918E-1,-7.683944106E-1,2.497718781E-1
2.697653125E0,9.031984210E-1,-6.616623402E-1,2.147694230E-1
2.707628125E0,6.368202567E-1,-8.829220533E-1,1.421470046E-1
2.717603125E0,4.483459890E-1,-1.013187051E0,1.662669778E-1
2.727578125E0,3.843062222E-1,-1.094634295E0,2.205072045E-1
2.737553125E0,4.429133534E-1,-1.167121887E0,2.365402281E-1
2.747528125E0,5.639193654E-1,-1.109900951E0,2.518602908E-1
2.757503125E0,6.895564198E-1,-1.009963751E0,2.465246767E-1
2.767478125E0,7.971460223E-1,-8.555616140E-1,2.161860019E-1
2.777453125E0,9.796375036E-1,-6.075100303E-1,1.451573670E-1
2.787428125E0,1.234263062E0,-5.047177076E-1,3.422414139E-2
2.797403125E0,1.085908771E0,-5.678572655E-1,-1.419021487E-1
2.807378125E0,6.325175762E-1,-6.945880055E-1,-2.059923559E-1
2.817353125E0,3.922104239E-1,-6.691939235E-1,-2.040556967E-1
2.827328125E0,3.069335222E-1,-6.652786136E-1,-2.816760242E-1
2.837303125E0,3.084336817E-1,-6.283658743E-1,-4.407394528E-1
2.847278125E0,3.845738471E-1,-5.057626963E-1,-5.997134447E-1
2.857253125E0,4.533465207E-1,-3.805410862E-1,-6.969332099E-1
2.867228125E0,4.545998871E-1,-3.001331687E-1,-7.219159007E-1
2.877204125E0,4.449637532E-1,-2.935956419E-1,-7.385433912E-1
2.887179125E0,4.089860022E-1,-3.147640526E-1,-7.780157328E-1
2.897154125E0,3.215166330E-1,-2.926568687E-1,-8.074287772E-1
2.907129125E0,2.335592657E-1,-2.297230810E-1,-8.204410672E-1
2.917104125E0,1.190920919E-1,-1.512327939E-1,-8.510178924E-1
2.927079125E0,5.620847456E-3,2.297423547E-3,-8.883212209E-1
2.937054125E0,-1.306994408E-1,-1.091633216E-1,-8.156436086E-1
2.947029125E0,-1.220987290E-1,-1.600622833E-1,-7.380885482E-1
2.957004125E0,-1.382976770E-1,-2.190566212E-1,-6.969844699E-1
2.966979125E0,-1.004528105E-1,-1.164394245E-1,-6.611502767E-1
2.976954125E0,-1.272623241E-1,-1.556488723E-1,-6.235507131E-1
2.986929125E0,-2.144200206E-1,-1.033965647E-1,-5.856084824E-1
2.996904125E0,-3.274890482E-1,-7.924941927E-2,-4.969302714E-1
3.006879125E0,-4.208262861E-1,-2.210906148E-1,-3.492187858E-1
3.016854125E0,-4.557224810E-1,-2.224906385E-1,-2.353372127E-1
3.026829125E0,-4.596933722E-1,-9.487522393E-2,-1.868503243E-1
3.036804125E0,-5.252694488E-1,-6.160807982E-2,-1.704242229E-1
3.046779125E0,-5.658681393E-1,-6.355277449E-2,-1.181509122E-1
3.056754125E0,-5.793306828E-1,-1.338655502E-1,-5.315087736E-2
3.066729125E0,-5.976691842E-1,-1.796512455E-1,1.206394099E-2
3.076704125E0,-6.560419202E-1,-3.536123931E-1,9.794742614E-2
3.086679125E0,-6.736818552E-1,-4.069701135E-1,1.464893371E-1
3.096654125E0,-6.826806068E-1,-3.742675781E-1,1.975898147E-1
3.106629125E0,-7.480880022E-1,-3.336484134E-1,2.006511539E-1
3.116604125E0,-8.345546722E-1,-3.394953907E-1,2.752180398E-1
3.126579125E0,-9.199134707E-1,-3.633945584E-1,2.877486348E-1
3.136555125E0,-9.751769900E-1,-4.497265220E-1,3.041382730E-1
3.146530125E0,-9.847645760E-1,-4.599511921E-1,3.378286064E-1
3.156505125E0,-9.927460551E-1,-4.104086757E-1,3.481031060E-1
3.166480125E0,-1.051126599E0,-3.377739787E-1,3.551664352E-1
3.176455125E0,-1.083170772E0,-2.529871762E-1,3.669503927E-1
3.186430125E0,-1.066249251E0,-1.922886372E-1,3.609499633E-1
3.196405125E0,-1.015604377E0,-5.948798358E-2,3.338980973E-1
3.206380125E0,-9.428244233E-1,3.611459583E-2,3.069672287E-1
3.216355125E0,-8.632928133E-1,8.117448539E-2,2.663452327E-1
3.226330125E0,-8.145306110E-1,4.699869454E-2,2.159636468E-1
3.236305125E0,-7.886809111E-1,5.026209634E-3,1.427770555E-1
3.246280125E0,-7.710916996E-1,-7.244324684E-2,5.910281464E-2
3.256255125E0,-7.838605046E-1,-1.751469821E-1,-2.595615387E-2
3.266230125E0,-8.254114389E-1,-1.610303819E-1,-5.827018991E-2
3.276205125E0,-8.550814390E-1,-2.111167163E-1,-6.045158580E-2
3.286180125E0,-8.398769498E-1,-2.985563278E-1,-3.633787856E-2
3.296155125E0,-7.741067410E-1,-3.377205133E-1,-1.234945282E-2
