"Time (s)","X (rad/s)","Y (rad/s)","Z (rad/s)"
1.019629167E-2,-1.320653409E-1,-8.671743274E-1,4.095767438E-1
2.023229166E-2,-2.047651112E-1,-7.473294139E-1,3.148121536E-1
3.026829165E-2,-2.158118933E-1,-6.144150496E-1,2.436154485E-1
4.030429164E-2,-1.757678092E-1,-5.108055472E-1,1.964330226E-1
5.034029169E-2,-1.002129316E-1,-4.419426620E-1,1.808625758E-1
6.037629169E-2,-1.061300747E-2,-4.265272319E-1,1.883444637E-1
7.041229168E-2,7.952149957E-2,-4.339535534E-1,2.163581848E-1
8.044829167E-2,1.640568823E-1,-4.230718911E-1,2.454923540E-1
9.048429166E-2,2.430750430E-1,-3.737563789E-1,2.708758712E-1
1.005202917E-1,3.033647239E-1,-2.736638486E-1,2.874532640E-1
1.105562916E-1,3.296682239E-1,-1.449516416E-1,2.982275486E-1
1.205922917E-1,3.118775189E-1,-3.433617949E-2,3.055121005E-1
1.306282917E-1,2.436212003E-1,3.691082448E-2,3.073970079E-1
1.406642917E-1,1.307138205E-1,8.263170719E-2,2.989310920E-1
1.507002917E-1,-1.168931834E-2,1.331018358E-1,2.827916443E-1
1.607362917E-1,-1.605586857E-1,2.043323368E-1,2.658539414E-1
1.707722917E-1,-3.024533689E-1,3.344424665E-1,2.605612874E-1
1.808082917E-1,-4.146110415E-1,5.269572735E-1,2.786393464E-1
1.908442916E-1,-5.041490793E-1,7.331050038E-1,3.220281303E-1
2.008802917E-1,-5.722599626E-1,8.678699732E-1,3.868340254E-1
2.109162917E-1,-6.193233728E-1,8.694900870E-1,4.473760426E-1
2.209522917E-1,-6.644948125E-1,7.504816651E-1,4.636450410E-1
2.309872917E-1,-7.184585333E-1,5.478544235E-1,4.081426859E-1
2.410232917E-1,-8.023664355E-1,2.631447017E-1,3.005970418E-1
2.510592917E-1,-8.624603748E-1,-1.073394045E-1,2.251953036E-1
2.610952917E-1,-8.320992589E-1,-3.663424551E-1,1.448152363E-1
2.711312917E-1,-7.657041550E-1,-4.124945402E-1,1.146216691E-2
2.811672917E-1,-6.877901554E-1,-2.548026443E-1,-1.892416328E-1
2.912032917E-1,-6.305467486E-1,-2.713622991E-3,-4.228961766E-1
3.012392917E-1,-6.105813384E-1,2.598975003E-1,-6.141604185E-1
3.112752917E-1,-6.122277975E-1,5.334953070E-1,-6.942535639E-1
3.213112917E-1,-6.398974657E-1,7.295023799E-1,-6.628953218E-1
3.313472916E-1,-7.006610036E-1,7.906852365E-1,-5.572205782E-1
3.413832917E-1,-7.894992828E-1,7.615353465E-1,-4.247267246E-1
3.514192917E-1,-8.899760842E-1,6.656126976E-1,-3.187360168E-1
3.614552917E-1,-9.771448374E-1,5.251479745E-1,-2.769451737E-1
3.714912917E-1,-1.032194376E0,3.699378967E-1,-3.104603589E-1
3.815272917E-1,-1.045088053E0,2.052006125E-1,-4.245901406E-1
3.915632917E-1,-1.016830802E0,4.695546627E-2,-5.935112834E-1
4.015992917E-1,-9.311719537E-1,-5.324570462E-2,-7.737710476E-1
4.116352916E-1,-7.606475949E-1,-7.035751641E-2,-9.058166742E-1
4.216712917E-1,-4.998817146E-1,2.470055781E-2,-9.694768786E-1
4.317072917E-1,-1.545272022E-1,2.065052539E-1,-9.437197447E-1
4.417428334E-1,2.316340804E-1,3.931467831E-1,-8.210364580E-1
4.517788333E-1,6.252620220E-1,5.326023698E-1,-6.063057184E-1
4.618148333E-1,9.873669744E-1,5.721689463E-1,-3.385888040E-1
4.718508333E-1,1.299706578E0,5.000903606E-1,-6.567148119E-2
4.818868333E-1,1.565680504E0,3.811600208E-1,2.020776719E-1
4.919228333E-1,1.784927130E0,1.600342989E-1,3.889216781E-1
5.019588334E-1,1.945006251E0,-1.055377200E-1,4.385398328E-1
5.119938334E-1,2.051687956E0,-3.334497213E-1,3.536409140E-1
5.220298333E-1,2.102277517E0,-4.813129008E-1,1.727084965E-1
5.320658333E-1,2.096891165E0,-5.003932118E-1,-6.019949168E-2
5.421018333E-1,2.031220913E0,-4.133344889E-1,-3.013891876E-1
5.521378333E-1,1.914631724E0,-2.527697384E-1,-5.121493936E-1
5.621738333E-1,1.749794126E0,-5.786789581E-2,-6.725915074E-1
5.722098334E-1,1.547705054E0,1.280422807E-1,-7.798382640E-1
5.822458334E-1,1.314007044E0,2.934871614E-1,-8.365452290E-1
5.922818333E-1,1.054908872E0,4.192440808E-1,-8.490292430E-1
6.023178333E-1,7.866974473E-1,4.906346500E-1,-8.231811523E-1
6.123538333E-1,5.207490325E-1,5.133152008E-1,-7.784470320E-1
6.223898333E-1,2.796924412E-1,4.831029773E-1,-7.305585742E-1
6.324258333E-1,7.697032392E-2,4.235801101E-1,-7.001981139E-1
6.424618333E-1,-7.565677166E-2,3.546622992E-1,-7.070112824E-1
6.524978334E-1,-1.837684214E-1,2.782907188E-1,-7.520233989E-1
6.625338334E-1,-2.569784522E-1,1.820472479E-1,-8.278816938E-1
6.725698333E-1,-3.037871122E-1,6.936688721E-2,-9.213082790E-1
6.826058333E-1,-3.368438780E-1,-5.608957633E-2,-1.025792122E0
6.926418333E-1,-3.646921813E-1,-1.755751669E-1,-1.129044414E0
7.026778333E-1,-3.908950388E-1,-2.592932284E-1,-1.217244267E0
7.127138333E-1,-4.259240031E-1,-3.008106351E-1,-1.285501719E0
7.227488334E-1,-4.719439745E-1,-3.057358861E-1,-1.318858862E0
7.327848334E-1,-5.269868970E-1,-2.650347352E-1,-1.311711550E0
7.428208333E-1,-5.840424895E-1,-1.705708355E-1,-1.249878764E0
7.528568333E-1,-6.344817281E-1,-3.499700129E-2,-1.143895507E0
7.628928333E-1,-6.857278347E-1,1.103178486E-1,-1.011644721E0
7.729288333E-1,-7.323413491E-1,2.534233630E-1,-8.547633886E-1
7.829648333E-1,-7.782585025E-1,3.844130635E-1,-6.789726615E-1
7.930008334E-1,-8.268964291E-1,4.872511625E-1,-4.950565696E-1
8.030368334E-1,-8.798975945E-1,5.204996467E-1,-3.102329373E-1
8.130728333E-1,-9.342566729E-1,4.683859050E-1,-1.406969279E-1
8.231088333E-1,-9.787114859E-1,3.389027417E-1,-5.053344183E-3
8.331448333E-1,-1.002985597E0,1.417764127E-1,8.061592281E-2
8.431808333E-1,-1.009894133E0,-1.119836941E-1,1.082198545E-1
8.532168333E-1,-9.883018732E-1,-3.906865716E-1,8.733224869E-2
8.632528333E-1,-9.394424558E-1,-6.109299660E-1,4.736939445E-2
8.732888334E-1,-8.309201002E-1,-6.588436961E-1,2.899854630E-2
8.833248334E-1,-6.479340792E-1,-4.823961854E-1,5.303384364E-2
8.933608333E-1,-4.122320116E-1,-1.395933181E-1,1.303965747E-1
9.033968333E-1,-1.768219024E-1,2.168566883E-1,2.586581707E-1
9.134318333E-1,5.410403945E-3,4.430911541E-1,4.167914391E-1
9.234678333E-1,1.075090766E-1,4.891580045E-1,5.559674501E-1
9.335038334E-1,1.253828406E-1,3.858153522E-1,6.336200833E-1
9.435398334E-1,8.207185566E-2,2.008335143E-1,6.429321170E-1
9.535758334E-1,1.302904543E-2,1.172869839E-2,5.902692080E-1
9.636118333E-1,-2.491061389E-2,-1.363382638E-1,4.889074862E-1
9.736478333E-1,-3.939877264E-3,-1.976320744E-1,3.830729723E-1
9.836838333E-1,9.839101881E-2,-9.611956775E-2,3.678855002E-1
9.937198333E-1,2.740628123E-1,5.862149596E-2,4.466431141E-1
1.003755833E0,4.893841743E-1,1.842436045E-1,5.838438869E-1
1.013791833E0,7.164930701E-1,2.795492709E-1,7.697962523E-1
1.023827833E0,9.313273430E-1,3.166526854E-1,9.783041477E-1
1.033863833E0,1.125378370E0,2.417133898E-1,1.180885792E0
1.043899833E0,1.281785607E0,3.435061872E-2,1.348195195E0
1.053935833E0,1.386346936E0,-2.392052412E-1,1.437730074E0
1.063971833E0,1.427400112E0,-5.465268493E-1,1.422761559E0
1.074006833E0,1.408114433E0,-8.467820287E-1,1.305822611E0
1.084042833E0,1.342186809E0,-1.069978952E0,1.105053544E0
1.094078833E0,1.245608687E0,-1.176426411E0,8.661518693E-1
1.104114833E0,1.145775318E0,-1.131534576E0,6.355002522E-1
1.114150833E0,1.067801356E0,-9.450876713E-1,4.565395713E-1
1.124186833E0,1.026486754E0,-6.735919714E-1,3.508136868E-1
1.134222833E0,1.018985271E0,-3.493003547E-1,3.129622936E-1
1.144258833E0,1.039948940E0,-1.576235332E-2,3.309439719E-1
1.154294833E0,1.074715734E0,3.065990806E-1,4.099597931E-1
1.164330833E0,1.105672002E0,5.546581745E-1,5.332457423E-1
1.174366833E0,1.124796987E0,7.155825496E-1,6.797082424E-1
1.184402833E0,1.136991858E0,7.966880798E-1,8.298053145E-1
1.194438833E0,1.144038081E0,8.220389485E-1,9.610112906E-1
1.204474833E0,1.143849254E0,8.057425618E-1,1.055396914E0
1.214510833E0,1.140942097E0,7.460312247E-1,1.117328763E0
1.224545833E0,1.126200438E0,6.585162878E-1,1.136290193E0
1.234581833E0,1.093951106E0,5.497924685E-1,1.113285065E0
1.244617833E0,1.036935210E0,4.302820861E-1,1.046591163E0
1.254653833E0,9.476813674E-1,3.141513169E-1,9.457191229E-1
1.264689833E0,8.276599050E-1,2.053118944E-1,8.140260577E-1
1.274725833E0,6.791940928E-1,1.205363050E-1,6.589542627E-1
1.284761833E0,5.083762407E-1,6.020159647E-2,4.904286563E-1
1.294797833E0,3.225688934E-1,1.636680961E-2,3.113142848E-1
1.304833833E0,1.352421343E-1,-1.365848118E-3,1.347008795E-1
1.314869833E0,-5.167224258E-2,-1.278331783E-2,-4.120236635E-2
1.324905833E0,-2.358490080E-1,-2.769489028E-2,-1.889167279E-1
1.334941833E0,-4.081665874E-1,-5.169301480E-2,-2.973939776E-1
1.344977833E0,-5.710700154E-1,-1.160344481E-1,-3.649077713E-1
1.355013833E0,-7.190145850E-1,-2.365220934E-1,-4.003791809E-1
1.365048833E0,-8.558073044E-1,-3.890794218E-1,-4.205425084E-1
1.375084833E0,-9.715548158E-1,-5.411417484E-1,-4.392537475E-1
1.385120833E0,-1.065154791E0,-6.854656339E-1,-4.720737338E-1
1.395156833E0,-1.146268725E0,-8.155458570E-1,-5.210396051E-1
1.405192833E0,-1.215247035E0,-9.307640791E-1,-5.900426507E-1
1.415228833E0,-1.280058980E0,-1.013665080E0,-6.693941355E-1
1.425264833E0,-1.332476735E0,-1.049788237E0,-7.457176447E-1
1.435300833E0,-1.360353589E0,-9.876331687E-1,-8.049953580E-1
1.445337083E0,-1.353196621E0,-7.817510962E-1,-8.239509463E-1
1.455373083E0,-1.309821129E0,-4.602043331E-1,-7.809463739E-1
1.465409083E0,-1.243136287E0,-1.248540282E-1,-6.702067852E-1
1.475445083E0,-1.167418718E0,1.017778888E-1,-4.959765077E-1
1.485481083E0,-1.094286203E0,1.674761921E-1,-3.067834377E-1
1.495516083E0,-1.042469621E0,1.107570827E-1,-1.456902027E-1
1.505552083E0,-1.009492993E0,-6.041066349E-2,-3.158707544E-2
1.515588083E0,-9.869217277E-1,-2.959440351E-1,5.456608254E-3
1.525624083E0,-9.641836882E-1,-5.539561510E-1,-6.749456376E-2
1.535660083E0,-9.328964949E-1,-7.788538337E-1,-2.442042083E-1
1.545696083E0,-8.851172924E-1,-8.265457153E-1,-4.718650579E-1
1.555732083E0,-7.959374189E-1,-6.626322865E-1,-6.867901683E-1
1.565768083E0,-6.553930640E-1,-3.101756871E-1,-8.331574798E-1
1.575804083E0,-4.589991868E-1,1.464087814E-1,-8.656059504E-1
1.585840083E0,-2.332520932E-1,5.865331292E-1,-7.526804209E-1
1.595876083E0,-6.452306174E-3,9.575510025E-1,-5.139055252E-1
1.605912083E0,1.953191608E-1,1.192642808E0,-1.902778894E-1
1.615947083E0,3.570270240E-1,1.212923884E0,1.445287615E-1
1.625983083E0,4.781576991E-1,1.006034017E0,4.292846024E-1
1.636019083E0,5.726101398E-1,6.338462830E-1,6.081804633E-1
1.646055083E0,6.470449567E-1,2.381623238E-1,6.485499740E-1
1.656091083E0,7.041657567E-1,-6.336629391E-2,5.477055311E-1
1.666127083E0,7.398771644E-1,-2.443509996E-1,3.234396577E-1
1.676163083E0,7.501726151E-1,-3.001381457E-1,2.854469791E-2
1.686199083E0,7.348024845E-1,-2.149033993E-1,-2.810733616E-1
1.696235083E0,7.012305260E-1,-4.987479746E-2,-5.545367599E-1
1.706271083E0,6.402556300E-1,1.345040947E-1,-7.558621168E-1
1.716307083E0,5.549548864E-1,2.919885814E-1,-8.598391414E-1
1.726342083E0,4.480223060E-1,4.221841395E-1,-8.784647584E-1
1.736378083E0,3.201141059E-1,5.191412568E-1,-8.287717700E-1
1.746414083E0,1.854151487E-1,5.809966326E-1,-7.332628369E-1
1.756450083E0,5.437915027E-2,5.810333490E-1,-6.218216419E-1
1.766486083E0,-6.747139245E-2,4.996173382E-1,-5.248801708E-1
1.776522083E0,-1.645327508E-1,3.736308217E-1,-4.535704851E-1
1.786558083E0,-2.357270420E-1,2.334771752E-1,-4.150284231E-1
1.796594083E0,-2.852257788E-1,8.002943546E-2,-4.275243282E-1
1.806630083E0,-3.134284019E-1,-9.653654695E-2,-4.952530563E-1
1.816666083E0,-3.278724849E-1,-2.766077220E-1,-6.022518873E-1
1.826702083E0,-3.379400373E-1,-4.302785099E-1,-7.279147506E-1
1.836737083E0,-3.445040882E-1,-5.299219489E-1,-8.393264413E-1
1.846773083E0,-3.546893597E-1,-5.528674722E-1,-9.201357961E-1
1.856809083E0,-3.721474707E-1,-5.196290612E-1,-9.704775810E-1
1.866845083E0,-3.993908167E-1,-4.474816620E-1,-9.852767587E-1
1.876881083E0,-4.257154167E-1,-3.467415273E-1,-9.587173462E-1
1.886917083E0,-4.488228559E-1,-2.140836269E-1,-8.963865638E-1
1.896953083E0,-4.622205496E-1,-5.651969463E-2,-7.975579500E-1
1.906989083E0,-4.717416167E-1,1.002328992E-1,-6.604906321E-1
1.917025083E0,-4.753638804E-1,1.956863105E-1,-4.933391213E-1
1.927061083E0,-4.688010514E-1,2.360254824E-1,-3.073290586E-1
1.937096083E0,-4.568488598E-1,2.218510658E-1,-1.323938817E-1
1.947132083E0,-4.507177472E-1,1.490743309E-1,2.158156969E-2
1.957168083E0,-4.429467320E-1,8.723978885E-3,1.240654886E-1
1.967204083E0,-4.447595477E-1,-1.936703920E-1,1.546042114E-1
1.977240083E0,-4.587488174E-1,-4.276938438E-1,1.235380322E-1
1.987276083E0,-4.705469012E-1,-6.362175345E-1,5.670627207E-2
1.997312083E0,-4.738013446E-1,-7.856608033E-1,-8.731149137E-3
2.007348083E0,-4.520574212E-1,-7.816050649E-1,-4.912278056E-2
2.017384083E0,-3.970963061E-1,-5.825980902E-1,-5.061171949E-2
2.027420083E0,-3.096657693E-1,-2.809636891E-1,-6.118019111E-3
2.037455083E0,-2.137213200E-1,-5.051413551E-2,6.873437762E-2
2.047491083E0,-1.343151778E-1,1.224858128E-2,1.716455817E-1
2.057527083E0,-8.797454834E-2,-5.990948901E-2,2.817454934E-1
2.067563083E0,-6.826023012E-2,-2.015382499E-1,3.650220037E-1
2.077599083E0,-5.397729948E-2,-3.427128196E-1,4.124544859E-1
2.087635083E0,-2.839044668E-2,-4.312352240E-1,4.259372652E-1
2.097671083E0,2.966670878E-2,-3.747653663E-1,4.169989824E-1
2.107707083E0,1.253405064E-1,-1.935305893E-1,4.073871076E-1
2.117743083E0,2.525609732E-1,2.861064859E-2,4.295678735E-1
2.127778083E0,4.068884850E-1,2.391367257E-1,5.021770597E-1
2.137814083E0,5.694199800E-1,3.983210921E-1,6.102144122E-1
2.147850083E0,7.283003926E-1,4.560680091E-1,7.356908321E-1
2.157886083E0,8.577853441E-1,3.709809482E-1,8.711056709E-1
2.167922083E0,9.582824111E-1,1.431832165E-1,9.956185818E-1
2.177958083E0,1.025035739E0,-1.887525320E-1,1.084044099E0
2.187994083E0,1.066775441E0,-5.471106768E-1,1.105576038E0
2.198030083E0,1.070004821E0,-8.813136220E-1,1.044655919E0
2.208066083E0,1.033694744E0,-1.152135015E0,9.119071960E-1
2.218102083E0,9.675885439E-1,-1.317849636E0,7.378092408E-1
2.228137083E0,8.839322329E-1,-1.364482641E0,5.384990573E-1
2.238173083E0,8.029879928E-1,-1.278111339E0,3.483001292E-1
2.248209083E0,7.297888994E-1,-1.093456864E0,1.906407177E-1
2.258245083E0,6.687351465E-1,-8.356007934E-1,9.184778482E-2
2.268281083E0,6.277996898E-1,-5.278965235E-1,5.700724199E-2
2.278317083E0,6.025103331E-1,-2.132201195E-1,8.184958249E-2
2.288353083E0,5.866985917E-1,7.332162559E-2,1.476080865E-1
2.298389083E0,5.744386315E-1,2.955909967E-1,2.442090362E-1
2.308425083E0,5.692068338E-1,4.264297187E-1,3.432940841E-1
2.318460083E0,5.743511319E-1,4.621690810E-1,4.351035953E-1
2.328496083E0,5.934103131E-1,4.528565407E-1,5.097059011E-1
2.338532083E0,6.274601817E-1,4.359864593E-1,5.657487512E-1
2.348568083E0,6.705250740E-1,4.019864202E-1,6.018026471E-1
2.358604083E0,7.132136822E-1,3.553604484E-1,6.099498272E-1
2.368640083E0,7.525472641E-1,3.013169169E-1,5.909407139E-1
2.378676083E0,7.790485024E-1,2.591992021E-1,5.479182601E-1
2.388712083E0,7.820027471E-1,2.166333646E-1,4.739167094E-1
2.398747083E0,7.443620563E-1,1.657046080E-1,3.679164648E-1
2.408783083E0,6.663362384E-1,1.089515761E-1,2.357499003E-1
2.418819083E0,5.482241511E-1,4.648894817E-2,8.883319050E-2
2.428855083E0,3.979878426E-1,-2.586716320E-3,-6.441149116E-2
2.438891083E0,2.243806720E-1,-2.147319727E-2,-2.184440643E-1
2.448927417E0,3.430819511E-2,-2.079009637E-2,-3.680338264E-1
2.458963417E0,-1.659844369E-1,-3.674041107E-2,-4.993237257E-1
2.468999417E0,-3.689418137E-1,-8.305731416E-2,-6.067876220E-1
2.479035417E0,-5.630436540E-1,-1.396401376E-1,-6.835666895E-1
2.489070417E0,-7.399931550E-1,-2.060982585E-1,-7.411058545E-1
2.499106417E0,-9.013339281E-1,-2.958823740E-1,-7.870298624E-1
2.509142417E0,-1.051878929E0,-4.086115956E-1,-8.332519531E-1
2.519178417E0,-1.180640221E0,-5.220524669E-1,-8.753878474E-1
2.529214417E0,-1.296909809E0,-6.325203776E-1,-9.222917557E-1
2.539250417E0,-1.403195381E0,-7.562459111E-1,-9.744369984E-1
2.549286417E0,-1.498750448E0,-8.628626466E-1,-1.027967095E0
2.559322417E0,-1.565341711E0,-8.962778449E-1,-1.070467114E0
2.569357417E0,-1.583361387E0,-8.133664727E-1,-1.079518318E0
2.579393417E0,-1.547587872E0,-6.036048532E-1,-1.055136561E0
2.589429417E0,-1.460343480E0,-2.823583484E-1,-9.844911695E-1
2.599465417E0,-1.337098122E0,6.080123037E-2,-8.703145385E-1
2.609501417E0,-1.215976477E0,3.083050251E-1,-7.224110961E-1
2.619537417E0,-1.118344545E0,3.702560365E-1,-5.658665895E-1
2.629573417E0,-1.052311659E0,2.588978410E-1,-4.408905804E-1
2.639609417E0,-1.013393164E0,1.819305681E-2,-3.526581526E-1
2.649644417E0,-9.824571013E-1,-2.841913104E-1,-3.201233745E-1
2.659680417E0,-9.350478649E-1,-5.485863090E-1,-3.710928559E-1
2.669716417E0,-8.743618727E-1,-7.003231049E-1,-5.046115518E-1
2.679752417E0,-7.952779531E-1,-6.819698811E-1,-6.474784613E-1
2.689788417E0,-6.706622839E-1,-4.616052806E-1,-7.355809212E-1
2.699824417E0,-4.851364791E-1,-9.294266254E-2,-7.206685543E-1
2.709860417E0,-2.478115559E-1,3.101177216E-1,-5.765206814E-1
2.719896417E0,2.377155237E-2,6.813050508E-1,-3.208900392E-1
2.729931417E0,2.944059670E-1,9.434003234E-1,1.312415954E-2
2.739967417E0,5.372553468E-1,1.041995406E0,3.570329547E-1
2.750003417E0,7.521172762E-1,9.562974572E-1,6.599957347E-1
2.760039417E0,9.313817620E-1,6.791808605E-1,8.752046227E-1
2.770075417E0,1.073412180E0,3.168793619E-1,9.415884614E-1
2.780111417E0,1.174136877E0,-4.836004227E-3,8.594044447E-1
2.790147417E0,1.234645844E0,-1.803513616E-1,6.506735682E-1
2.800183417E0,1.258631706E0,-2.242972255E-1,3.433590233E-1
2.810218417E0,1.236237288E0,-1.840893477E-1,-6.324276328E-4
2.820254417E0,1.179428577E0,-3.770773858E-2,-3.169828355E-1
2.830290417E0,1.090034008E0,1.465244293E-1,-5.732766986E-1
2.840326417E0,9.637652040E-1,3.193613589E-1,-7.500332594E-1
2.850362417E0,8.060663939E-1,4.706800580E-1,-8.480990529E-1
2.860398417E0,6.189002991E-1,6.011202931E-1,-8.771499991E-1
2.870434417E0,4.055254459E-1,6.718093753E-1,-8.455385566E-1
2.880469417E0,1.882233769E-1,6.534755826E-1,-7.640581727E-1
2.890505417E0,-1.175418776E-2,5.733035207E-1,-6.601509452E-1
2.900541417E0,-1.790843606E-1,4.709358513E-1,-5.649187565E-1
2.910577417E0,-3.048308492E-1,3.522161245E-1,-5.106278062E-1
2.920613417E0,-3.873590529E-1,2.298172563E-1,-5.022810102E-1
2.930649417E0,-4.239594042E-1,1.262096316E-1,-5.430164337E-1
2.940685417E0,-4.210237265E-1,4.391105473E-2,-6.147992015E-1
2.950721417E0,-3.931526840E-1,-3.117837012E-2,-6.957965493E-1
2.960756417E0,-3.482754529E-1,-1.021912470E-1,-7.703053951E-1
2.970792417E0,-2.998602688E-1,-1.590175182E-1,-8.252072930E-1
2.980828417E0,-2.628222704E-1,-2.001843601E-1,-8.576714396E-1
2.990864417E0,-2.406173497E-1,-2.217767388E-1,-8.683376312E-1
3.000900417E0,-2.366322279E-1,-2.115648687E-1,-8.594228029E-1
3.010936417E0,-2.566693425E-1,-1.445557326E-1,-8.249412179E-1
3.020972417E0,-2.881607711E-1,-2.324006520E-2,-7.599145770E-1
3.031007417E0,-3.296821117E-1,1.085656360E-1,-6.660860777E-1
3.041043417E0,-3.720036745E-1,2.218869179E-1,-5.439007282E-1
3.051079417E0,-4.153543413E-1,2.814168334E-1,-3.980889320E-1
3.061115417E0,-4.527601302E-1,2.742955089E-1,-2.321714312E-1
3.071151417E0,-4.909277558E-1,1.991283298E-1,-5.841774121E-2
3.081187417E0,-5.241389871E-1,9.788506478E-2,9.222369641E-2
3.091223417E0,-5.564247966E-1,6.982916035E-3,1.895020157E-1
3.101258417E0,-5.949562192E-1,-1.010319069E-1,2.119714916E-1
3.111294417E0,-6.448484659E-1,-2.486818135E-1,1.684655547E-1
3.121330417E0,-7.113208175E-1,-4.296727777E-1,8.602599055E-2
3.131366417E0,-7.911664248E-1,-6.140452623E-1,6.355127320E-3
3.141402417E0,-8.503721952E-1,-6.979995966E-1,-2.654727735E-2
3.151438417E0,-8.595651388E-1,-6.270405054E-1,-1.023807935E-2
3.161474417E0,-8.142573237E-1,-4.733377993E-1,4.513744637E-2
3.171509417E0,-7.285706401E-1,-3.407877684E-1,1.210700348E-1
3.181545417E0,-6.106942892E-1,-2.760619223E-1,2.146662325E-1
3.191581417E0,-4.677917063E-1,-2.540450394E-1,3.236331940E-1
3.201617417E0,-3.084164262E-1,-2.343051881E-1,4.283830523E-1
3.211653417E0,-1.413318366E-1,-1.828712821E-1,5.120601058E-1
3.221689417E0,2.193382569E-2,-6.795187294E-2,5.746934414E-1
3.231725417E0,1.686937064E-1,9.145110101E-2,6.235592365E-1
3.241760417E0,3.001717925E-1,2.537023127E-1,6.813497543E-1
3.251796417E0,4.169815183E-1,4.025493264E-1,7.544644475E-1
3.261832417E0,5.248004794E-1,4.989309609E-1,8.472906351E-1
3.271868417E0,6.219831705E-1,5.119783282E-1,9.498742819E-1
3.281904417E0,7.111727595E-1,4.552890956E-1,1.048912883E0
3.291940417E0,7.989172935E-1,3.386604786E-1,1.137108803E0
3.301976417E0,8.808233738E-1,1.982229948E-1,1.196904421E0
